#ZVView-data-copy:   6-Feb-2012 13:46:10
#=======================================
#
#name:   ENDF/B-VII.0: GD-157(N,G)GD-158
#X.axis: Incident Energy
#Y.axis: Cross Section
#wdata:  2
#ldata:  9231
#data...
#            X            Y
#          MeV        barns
         1e-11   9.69917e+6
    1.1024e-11   9.23787e+6
   1.21504e-11    8.7994e+6
   1.33946e-11   8.38093e+6
   1.47633e-11   7.98315e+6
    1.6275e-11   7.60354e+6
   1.79381e-11   7.24268e+6
   1.97749e-11   6.89831e+6
   2.17956e-11   6.57097e+6
   2.40274e-11   6.25857e+6
   2.64826e-11   5.96163e+6
   2.91943e-11   5.67824e+6
   3.21775e-11   5.40887e+6
   3.54723e-11   5.15181e+6
    3.9097e-11   4.90746e+6
   4.31005e-11   4.67428e+6
   4.75046e-11   4.45264e+6
    5.2369e-11   4.24112e+6
   5.77202e-11   4.04008e+6
   6.36306e-11   3.84823e+6
   7.01326e-11   3.66587e+6
   7.73139e-11   3.49186e+6
   8.52142e-11   3.32646e+6
   9.39398e-11   3.16863e+6
   1.03539e-10   3.01863e+6
   1.14141e-10   2.87549e+6
   1.25804e-10   2.73945e+6
   1.38686e-10   2.60965e+6
   1.52858e-10   2.48628e+6
    1.6851e-10   2.36857e+6
   1.85729e-10   2.25671e+6
   2.04747e-10   2.14998e+6
   2.25669e-10   2.04856e+6
   2.48777e-10    1.9518e+6
   2.74198e-10   1.85986e+6
   3.02275e-10   1.77215e+6
   3.33162e-10   1.68882e+6
   3.67277e-10   1.60933e+6
   4.04807e-10   1.53381e+6
   4.46258e-10   1.46179e+6
   4.91858e-10   1.39337e+6
   5.42223e-10   1.32813e+6
   5.97629e-10   1.26616e+6
   6.58824e-10   1.20708e+6
   7.26145e-10   1.15098e+6
   8.00501e-10    1.0975e+6
   8.82299e-10   1.04673e+6
   9.72643e-10       998339
    1.07203e-9       952415
     1.1818e-9       908662
    1.30256e-9       867151
    1.43594e-9       827617
    1.58267e-9       790124
    1.74474e-9       754433
    1.92302e-9       720601
    2.11993e-9       688414
    2.33655e-9       657922
    2.57581e-9       628931
    2.83901e-9       601487
    3.12972e-9       575415
    3.44953e-9       550756
    3.80275e-9       527352
    4.19133e-9       505240
     4.6205e-9       484277
    5.09264e-9       464498
    5.61412e-9       445772
    6.18779e-9       428124
     6.8214e-9       411432
    7.62451e-9       393517
    8.52217e-9       376745
    9.52551e-9       361046
     1.0647e-8       346357
    1.19005e-8       332597
    1.33016e-8       319665
    1.50745e-8       305959
    1.70869e-8       292925
    1.93643e-8       280392
    2.22549e-8       266667
    2.50875e-8       254624
       2.53e-8       253757
       3.14e-8       230097
    4.57208e-8       177135
    5.18146e-8       155529
    5.63256e-8       140389
    6.03892e-8       127571
    6.38452e-8       117363
     6.7499e-8       107306
    7.03691e-8      99948.4
    7.33755e-8        92751
    7.64955e-8      85821.5
    7.97636e-8        79131
    8.31552e-8      72771.1
    8.67078e-8      66705.2
    8.91544e-8      62858.1
    9.16701e-8      59164.6
    9.42567e-8      55627.1
    9.69163e-8      52246.6
    9.96509e-8      49023.3
    1.02463e-7      45956.2
    1.05354e-7      43043.5
    1.08327e-7      40282.6
    1.11383e-7        37670
    1.14526e-7      35201.9
    1.17758e-7      32873.8
     1.2108e-7      30680.9
    1.24497e-7      28618.2
     1.2801e-7      26680.3
    1.31622e-7      24861.9
    1.35335e-7      23157.4
    1.39154e-7      21561.2
    1.43081e-7      20067.9
    1.47118e-7        18672
    1.51269e-7      17368.2
    1.55537e-7      16151.2
    1.59926e-7        15016
    1.64439e-7      13957.8
    1.69078e-7      12971.9
    1.73849e-7      12053.9
    1.78755e-7      11199.7
    1.83798e-7      10405.4
    1.88985e-7      9666.63
    1.94317e-7      8979.37
      1.998e-7      8339.98
    2.05438e-7      7745.45
    2.11234e-7      7192.95
    2.17195e-7      6679.68
    2.23323e-7      6202.97
    2.29625e-7      5760.26
    2.36104e-7      5349.19
    2.42766e-7      4967.54
    2.49616e-7      4613.22
    2.56659e-7       4284.3
    2.63901e-7      3978.97
    2.71347e-7      3695.56
    2.79004e-7       3432.5
    2.86876e-7      3188.33
    2.94971e-7      2961.68
    3.03294e-7      2751.32
    3.11852e-7      2556.05
    3.20651e-7       2374.8
    3.29699e-7      2206.54
    3.39002e-7      2050.36
    3.48567e-7      1905.37
    3.58403e-7      1770.83
    3.68516e-7      1646.05
    3.78914e-7      1530.24
    3.89606e-7      1422.59
    4.00599e-7       1322.5
    4.11902e-7      1229.52
    4.23525e-7      1143.17
    4.35475e-7      1062.97
    4.47763e-7      988.485
    4.60397e-7      919.296
    4.73388e-7      855.023
    4.86745e-7      795.313
    5.00479e-7      739.837
    5.14601e-7      688.292
    5.29122e-7      640.396
    5.44051e-7      595.886
    5.59403e-7      554.521
    5.75187e-7      516.076
    5.91417e-7      480.341
    6.08105e-7      447.124
    6.25263e-7      416.245
    6.42906e-7      387.537
    6.61046e-7      360.847
    6.79699e-7       336.03
    6.98878e-7      312.957
    7.18597e-7      291.517
    7.38874e-7      271.593
    7.59722e-7      253.058
    7.81159e-7      235.772
      8.032e-7      219.689
    8.25864e-7      204.753
    8.49167e-7      190.864
    8.73127e-7      177.965
    8.97764e-7      165.991
    9.23096e-7       154.82
    9.49142e-7      144.414
    9.75924e-7      134.735
    1.00346e-6      125.734
    1.03178e-6      117.362
    1.06089e-6      109.578
    1.09082e-6      102.339
     1.1216e-6      95.6098
    1.15325e-6      89.3549
    1.18579e-6      83.5425
    1.21925e-6      78.1429
    1.25365e-6       73.129
    1.28903e-6      68.4754
     1.3254e-6      64.1592
     1.3628e-6       60.159
    1.40125e-6      56.4557
    1.44079e-6      53.0313
    1.48144e-6      49.8686
    1.52324e-6      46.9587
    1.56622e-6      44.2878
    1.61042e-6      41.8545
    1.65586e-6      39.6394
    1.70258e-6       37.631
    1.75062e-6      35.8368
    1.80002e-6       34.259
    1.85081e-6      32.9051
    1.88979e-6      32.0454
     1.9295e-6      31.3269
    1.97034e-6      30.7528
    2.01194e-6      30.3621
    2.05525e-6      30.1735
    2.07058e-6      30.1637
    2.09979e-6      30.2342
      2.129e-6      30.4318
    2.15904e-6      30.7838
    2.18908e-6      31.3053
    2.21996e-6      32.0462
    2.24312e-6      32.7617
    2.26672e-6      33.6536
    2.29054e-6      34.7461
    2.31435e-6      36.0647
    2.33884e-6      37.6998
    2.35517e-6       38.974
    2.37149e-6      40.4184
    2.38805e-6      42.0821
    2.40484e-6      44.0061
    2.42162e-6      46.2096
    2.43841e-6      48.7418
    2.45112e-6       50.913
    2.46406e-6      53.3849
    2.47701e-6       56.158
    2.48995e-6      59.2788
     2.5029e-6      62.8036
    2.51584e-6      66.8005
    2.52472e-6      69.8554
    2.53359e-6      73.2026
    2.54246e-6      76.8789
    2.55134e-6      80.9273
    2.56021e-6       85.398
    2.56908e-6      90.3503
    2.57796e-6      95.8548
    2.58683e-6      101.995
     2.5959e-6      109.029
    2.60496e-6      116.959
      2.611e-6      122.821
    2.61705e-6      129.204
    2.62309e-6      136.171
    2.62913e-6      143.796
    2.63518e-6       152.16
    2.64065e-6      160.457
    2.64613e-6      169.524
     2.6516e-6      179.456
    2.65708e-6      190.361
    2.66256e-6      202.366
    2.66803e-6      215.618
    2.67351e-6      230.283
    2.67898e-6      246.557
    2.68324e-6      260.469
     2.6875e-6      275.607
    2.69176e-6      292.102
    2.69602e-6      310.101
    2.70028e-6      329.761
    2.70454e-6      351.257
    2.70879e-6      374.774
    2.71305e-6      400.511
    2.71807e-6      433.974
    2.72309e-6      471.153
    2.72811e-6      512.392
    2.73313e-6      558.008
    2.73815e-6      608.275
    2.74287e-6      659.906
    2.74743e-6      714.012
    2.75199e-6      772.152
    2.75655e-6      834.163
    2.76264e-6      922.296
    2.76964e-6      1029.82
    2.78606e-6      1290.36
    2.79227e-6      1382.72
    2.79847e-6      1466.04
    2.80261e-6      1514.66
    2.80748e-6      1563.13
    2.81235e-6      1600.69
    2.81721e-6      1626.13
    2.82086e-6      1636.72
    2.82481e-6      1639.73
    2.82777e-6      1636.18
    2.83177e-6       1623.6
    2.83619e-6      1599.53
    2.84106e-6      1561.59
    2.84508e-6      1522.07
    2.84982e-6      1467.04
    2.85457e-6      1404.47
    2.86114e-6      1308.55
    2.87112e-6      1151.48
    2.88158e-6      985.549
    2.88706e-6      902.466
    2.89253e-6      823.648
    2.89801e-6      749.927
    2.90257e-6      692.751
    2.90713e-6      639.591
     2.9117e-6      590.459
    2.91626e-6      545.276
    2.92082e-6      503.891
    2.92417e-6      475.842
    2.92782e-6      447.344
    2.93147e-6      420.916
    2.93512e-6      396.429
    2.93877e-6      373.753
    2.94242e-6      352.757
    2.94607e-6      333.317
    2.94972e-6      315.313
    2.95368e-6      297.298
    2.95794e-6      279.477
     2.9622e-6      263.144
    2.96645e-6      248.155
    2.97071e-6       234.38
    2.97497e-6      221.704
    2.97923e-6       210.02
    2.98349e-6      199.233
    2.98836e-6      187.896
    2.99383e-6      176.271
    2.99931e-6      165.708
    3.00478e-6      156.085
    3.01026e-6      147.296
    3.01573e-6       139.25
    3.02121e-6      131.866
    3.02669e-6      125.075
    3.03307e-6      117.821
    3.04038e-6      110.309
    3.04768e-6      103.526
    3.05498e-6      97.3807
    3.06228e-6      91.7959
    3.06958e-6      86.7053
    3.07688e-6      82.0521
    3.08418e-6      77.7874
    3.09209e-6      73.5566
    3.10061e-6      69.4018
    3.10913e-6      65.6148
    3.11764e-6      62.1533
    3.12616e-6      58.9809
    3.13468e-6      56.0661
    3.14745e-6      52.1183
    3.15597e-6      49.7358
     3.1671e-6      46.8855
    3.17824e-6      44.2991
    3.18937e-6      41.9447
     3.2005e-6       39.795
    3.21163e-6      37.8267
    3.22276e-6      36.0198
    3.23946e-6      33.5744
    3.25647e-6      31.3658
    3.27364e-6      29.3832
     3.2908e-6      27.6122
    3.30797e-6      26.0225
    3.32514e-6      24.5889
    3.34247e-6      23.2792
    3.36012e-6      22.0691
    3.37778e-6      20.9687
    3.39543e-6      19.9648
    3.41896e-6       18.757
    3.44283e-6      17.6641
    3.46703e-6      16.6722
    3.49123e-6      15.7813
    3.51544e-6      14.9772
    3.53998e-6       14.238
    3.56486e-6      13.5566
    3.58975e-6      12.9354
    3.62707e-6      12.1008
    3.66545e-6      11.3459
    3.70383e-6      10.6783
    3.74257e-6       10.079
    3.78203e-6      9.53443
    3.82149e-6      9.04627
    3.86169e-6      8.59668
    3.88875e-6      8.31795
    3.94285e-6      7.81119
    3.99847e-6      7.35072
     4.0541e-6      6.94156
    4.11129e-6       6.5658
    4.16849e-6      6.22864
     4.2273e-6      5.91625
    4.28611e-6      5.63366
    4.34658e-6      5.36988
    4.40705e-6      5.12963
    4.50031e-6      4.79845
    4.59533e-6      4.50367
    4.69213e-6      4.23756
    4.79073e-6       3.9965
    4.89211e-6      3.77582
     4.9954e-6      3.57501
    5.10063e-6      3.39167
    5.20781e-6      3.22384
    5.31802e-6      3.06842
    5.43031e-6       2.9256
    5.50585e-6      2.83732
    5.66121e-6      2.67295
    5.82095e-6      2.52491
    5.98519e-6      2.39141
    6.15408e-6      2.27096
    6.32772e-6      2.16267
    6.50627e-6       2.0652
    6.68985e-6      1.97721
    6.87862e-6      1.89836
    7.07271e-6      1.82802
    7.27227e-6      1.76568
    7.47747e-6      1.71095
    7.68846e-6      1.66344
     7.9054e-6      1.62303
    8.12846e-6      1.58957
    8.35782e-6       1.5638
    8.59365e-6      1.54379
    8.83613e-6      1.53114
    9.11893e-6      1.52536
    9.41066e-6      1.53042
     9.6762e-6      1.54367
    9.94923e-6      1.56698
      1.023e-5      1.60094
    1.05186e-5      1.64765
    1.08154e-5      1.70944
    1.10443e-5      1.76701
    1.12775e-5      1.83684
     1.1515e-5      1.92062
     1.1757e-5       2.0215
    1.19229e-5      2.10058
    1.20887e-5      2.18909
    1.22593e-5      2.29128
    1.24298e-5      2.40641
    1.26052e-5      2.53957
    1.27367e-5       2.6515
    1.28707e-5      2.77788
     1.3006e-5      2.91937
    1.31412e-5      3.07688
    1.32802e-5      3.25808
    1.34193e-5      3.46196
    1.35597e-5      3.69468
     1.3655e-5      3.87061
    1.37503e-5      4.06309
    1.38456e-5      4.27427
    1.39423e-5      4.51013
    1.40403e-5      4.77475
    1.41383e-5      5.06884
    1.42363e-5      5.39703
    1.43357e-5      5.77037
    1.44112e-5      6.08562
    1.44868e-5      6.43136
    1.45624e-5      6.81238
     1.4638e-5      7.23504
    1.47143e-5       7.7099
     1.4792e-5      8.25094
    1.48697e-5      8.85957
    1.49215e-5      9.30871
    1.49733e-5      9.79744
    1.50251e-5      10.3307
    1.50769e-5      10.9142
    1.51253e-5      11.5109
    1.51704e-5      12.1162
    1.52154e-5      12.7761
    1.52604e-5      13.4976
    1.53055e-5      14.2889
    1.53505e-5      15.1597
    1.53955e-5      16.1212
    1.54406e-5      17.1868
    1.54774e-5      18.1461
    1.55202e-5       19.379
    1.55631e-5      20.7571
    1.56059e-5      22.3062
    1.56345e-5      23.4496
     1.5663e-5       24.695
    1.56916e-5      26.0563
    1.57259e-5      27.8669
    1.57601e-5      29.9057
     1.5783e-5      31.4147
    1.58059e-5      33.0643
    1.58287e-5      34.8773
    1.58516e-5      36.8829
    1.58744e-5      39.1198
    1.58967e-5       41.574
     1.5919e-5      44.3682
    1.59338e-5      46.4683
    1.59487e-5      48.8053
    1.59635e-5      51.4336
    1.59784e-5      54.4247
    1.59895e-5      56.9606
    1.60001e-5       59.646
    1.60104e-5      62.5663
    1.60206e-5      65.8406
    1.60309e-5       69.525
    1.60412e-5      73.6801
    1.60509e-5      78.0937
    1.60595e-5       82.426
    1.60681e-5      87.2053
    1.60766e-5       92.462
    1.60852e-5      98.2204
    1.60938e-5      104.496
    1.61023e-5      111.293
    1.61109e-5      118.601
    1.61223e-5      129.091
    1.61337e-5      140.326
    1.61549e-5       162.43
    1.61754e-5      184.198
    1.61872e-5       196.02
    1.62005e-5      208.195
    1.62105e-5       216.33
    1.62208e-5      223.461
    1.62299e-5      228.677
    1.62414e-5      233.629
    1.62501e-5      236.222
    1.62626e-5      238.275
    1.62712e-5      238.638
    1.62862e-5      237.657
    1.63265e-5      230.852
    1.63428e-5      229.447
    1.63445e-5      229.423
    1.63562e-5      230.059
    1.63662e-5      231.881
    1.63762e-5      235.068
    1.63862e-5      239.781
    1.63948e-5      245.145
    1.64034e-5      251.829
    1.64119e-5      259.928
    1.64205e-5      269.545
    1.64291e-5      280.801
    1.64388e-5      295.718
    1.64457e-5      307.759
    1.64525e-5      321.172
    1.64594e-5      336.081
    1.64662e-5      352.632
    1.64731e-5      370.996
    1.64799e-5      391.371
    1.64868e-5      413.985
    1.64936e-5      439.003
    1.65004e-5      466.802
    1.65073e-5      497.722
    1.65141e-5      532.144
    1.65209e-5      570.498
    1.65278e-5       613.26
    1.65329e-5      648.539
     1.6538e-5      686.833
    1.65443e-5      738.705
    1.65502e-5      791.347
     1.6556e-5      849.081
    1.65618e-5      912.344
    1.65677e-5      981.587
    1.65735e-5      1057.26
    1.65793e-5      1139.83
    1.65852e-5      1229.73
    1.65904e-5      1317.27
    1.65974e-5      1444.24
    1.66044e-5      1583.48
    1.66114e-5      1735.45
    1.66184e-5      1900.46
    1.66254e-5      2078.58
    1.66335e-5      2302.74
    1.66417e-5       2543.8
    1.66499e-5      2800.42
     1.6661e-5      3169.91
    1.66785e-5      3786.28
    1.66989e-5      4508.65
    1.67098e-5      4872.12
    1.67201e-5      5181.43
    1.67299e-5       5438.5
    1.67369e-5      5594.32
    1.67439e-5      5723.75
    1.67516e-5      5832.82
    1.67588e-5      5901.36
    1.67665e-5      5936.53
    1.67694e-5      5939.65
    1.67779e-5      5915.85
    1.67849e-5      5860.39
    1.67919e-5      5773.64
    1.67989e-5      5657.26
    1.68036e-5      5564.27
    1.68129e-5      5344.79
    1.68229e-5      5065.81
     1.6833e-5      4751.76
    1.68435e-5      4396.73
     1.6875e-5      3282.24
     1.6886e-5      2907.53
    1.68962e-5      2582.51
    1.69044e-5      2339.36
    1.69126e-5      2112.78
    1.69193e-5      1939.64
    1.69263e-5      1771.68
    1.69333e-5      1616.66
    1.69403e-5      1474.34
    1.69473e-5      1344.29
    1.69519e-5      1264.15
    1.69578e-5      1170.99
    1.69636e-5      1085.28
    1.69694e-5      1006.58
    1.69753e-5      934.437
    1.69811e-5      868.407
    1.69869e-5      808.044
    1.69928e-5      752.907
    1.69986e-5      702.572
    1.70043e-5      657.731
      1.701e-5      616.714
    1.70156e-5      579.183
    1.70213e-5      544.827
     1.7027e-5      513.352
    1.70327e-5      484.493
    1.70384e-5      458.001
    1.70441e-5      433.653
    1.70516e-5      404.171
    1.70592e-5      377.705
    1.70662e-5      355.623
    1.70732e-5      335.527
    1.70802e-5      317.191
    1.70872e-5      300.416
    1.70966e-5      280.178
    1.71059e-5      262.056
    1.71152e-5      245.756
    1.71245e-5      231.032
    1.71339e-5       217.68
    1.71426e-5      206.253
    1.71514e-5      195.758
     1.7163e-5      183.038
    1.71747e-5      171.587
    1.71864e-5      161.235
     1.7198e-5      151.839
    1.72097e-5      143.282
    1.72213e-5      135.463
    1.72347e-5      127.274
    1.72499e-5      118.921
    1.72651e-5        111.4
    1.72802e-5      104.603
    1.72954e-5      98.4371
    1.73106e-5      92.8254
    1.73257e-5      87.7022
    1.73409e-5      83.0118
    1.73575e-5      78.3108
    1.73756e-5      73.6593
    1.73937e-5      69.4318
    1.74117e-5      65.5781
    1.74298e-5      62.0551
    1.74479e-5       58.826
     1.7466e-5       55.859
     1.7484e-5      53.1264
    1.75047e-5      50.2542
    1.75281e-5      47.3099
    1.75514e-5      44.6386
    1.75747e-5      42.2077
     1.7598e-5      39.9899
    1.76214e-5      37.9614
    1.76447e-5      36.1018
     1.7668e-5      34.3932
    1.76943e-5      32.6325
    1.77234e-5      30.8545
    1.77526e-5      29.2426
    1.77817e-5      27.7778
    1.78109e-5      26.4436
      1.784e-5      25.2261
    1.78838e-5      23.5923
    1.79253e-5       22.227
    1.79625e-5      21.1392
    1.79997e-5      20.1622
    1.80368e-5      19.2833
    1.80864e-5      18.2456
     1.8136e-5      17.3426
    1.81855e-5      16.5576
    1.82351e-5      15.8771
    1.82847e-5      15.2895
    1.83352e-5      14.7762
    1.83868e-5      14.3339
    1.84383e-5      13.9665
    1.84899e-5      13.6686
    1.85414e-5      13.4356
     1.8593e-5      13.2639
    1.86445e-5      13.1507
    1.86961e-5      13.0944
    1.87218e-5      13.0876
    1.87777e-5      13.1221
    1.88336e-5      13.2248
    1.88895e-5      13.3983
    1.89454e-5      13.6462
    1.90013e-5      13.9733
    1.90572e-5      14.3861
    1.91131e-5      14.8932
     1.9169e-5      15.5057
    1.92093e-5      16.0213
    1.92497e-5      16.6053
    1.92901e-5      17.2652
    1.93304e-5      18.0103
    1.93708e-5      18.8516
    1.94112e-5      19.8024
    1.94515e-5      20.8781
    1.94919e-5      22.0971
    1.95229e-5      23.1462
     1.9554e-5      24.3051
     1.9585e-5      25.5881
    1.96161e-5      27.0119
    1.96471e-5      28.5961
    1.96782e-5       30.364
    1.97092e-5      32.3436
    1.97403e-5      34.5684
     1.9762e-5       36.293
    1.97838e-5       38.174
    1.98055e-5      40.2304
    1.98272e-5      42.4842
     1.9849e-5      44.9616
    1.98707e-5      47.6929
    1.98924e-5      50.7141
    1.99142e-5      54.0679
    1.99347e-5      57.5807
    1.99551e-5      61.4858
    1.99756e-5      65.8448
    1.99961e-5      70.7321
